Dystans (m),Wysokosc (m),Wezel
0,20.8544,1
16.4691,20.4609,0
32.9382,20.0676,0
49.4073,19.6746,0
65.8764,19.282,0
82.3455,18.8901,0
98.8146,18.4989,0
115.284,18.1087,0
131.753,17.7196,0
148.222,17.3317,0
164.691,16.9453,0
181.16,16.5604,0
197.629,16.1772,0
214.098,15.7959,0
230.568,15.4167,0
247.037,15.0396,0
263.506,14.6649,0
279.975,14.2927,0
296.444,13.9231,0
312.913,13.5564,0
329.382,13.1926,0
345.851,12.832,0
362.32,12.4746,0
378.789,12.1207,0
395.259,11.7704,0
411.728,11.4239,0
428.197,11.0812,0
444.666,10.7427,0
461.135,10.4083,0
477.604,10.0784,0
494.073,9.75297,0
510.542,9.43225,0
527.011,9.11638,0
543.481,8.80552,0
559.95,8.49982,0
576.419,8.19945,0
592.888,7.90455,0
609.357,7.61529,0
625.826,7.33182,0
642.295,7.0543,0
658.764,6.78287,0
675.233,6.51772,0
691.703,6.25897,0
708.172,6.0068,0
724.641,5.76137,0
741.11,5.52281,0
757.579,5.2913,0
774.048,5.06699,0
790.517,4.85004,0
806.986,4.6406,0
823.455,4.43883,0
839.925,4.24488,0
856.394,4.05892,0
872.863,3.88109,0
889.332,3.71156,0
905.801,3.55048,0
922.27,3.39801,1
938.739,3.25426,0
955.208,3.11911,0
971.677,2.99244,0
988.146,2.87407,0
1004.62,2.76387,0
1021.08,2.66168,0
1037.55,2.56736,0
1054.02,2.48075,0
1070.49,2.4017,0
1086.96,2.33007,0
1103.43,2.2657,0
1119.9,2.20844,0
1136.37,2.15814,0
1152.84,2.11465,0
1169.31,2.07782,0
1185.78,2.04751,0
1202.24,2.02356,0
1218.71,2.00581,0
1235.18,1.99413,0
1251.65,1.98836,0
1268.12,1.98835,0
1284.59,1.99395,0
1301.06,2.00501,0
1317.53,2.02137,0
1334,2.0429,0
1350.47,2.06943,0
1366.94,2.10083,0
1383.41,2.13693,0
1399.87,2.17759,0
1416.34,2.22266,0
1432.81,2.27199,0
1449.28,2.32542,0
1465.75,2.38281,0
1482.22,2.44401,0
1498.69,2.50886,0
1515.16,2.57722,0
1531.63,2.64894,0
1548.1,2.72386,0
1564.57,2.80184,0
1581.03,2.88273,0
1597.5,2.96637,0
1613.97,3.05261,0
1630.44,3.14131,0
1646.91,3.23232,0
1663.38,3.32548,0
1679.85,3.42064,0
1696.32,3.51766,0
1712.79,3.61638,0
1729.26,3.71665,0
1745.73,3.81833,0
1762.19,3.92126,0
1778.66,4.0253,0
1795.13,4.13028,0
1811.6,4.23607,0
1828.07,4.34251,0
1844.54,4.44946,1
1861.01,4.55676,0
1877.48,4.66429,0
1893.95,4.77195,0
1910.42,4.87961,0
1926.89,4.98716,0
1943.35,5.09449,0
1959.82,5.20147,0
1976.29,5.308,0
1992.76,5.41395,0
2009.23,5.51921,0
2025.7,5.62368,0
2042.17,5.72722,0
2058.64,5.82972,0
2075.11,5.93108,0
2091.58,6.03117,0
2108.05,6.12987,0
2124.51,6.22708,0
2140.98,6.32268,0
2157.45,6.41655,0
2173.92,6.50858,0
2190.39,6.59864,0
2206.86,6.68663,0
2223.33,6.77243,0
2239.8,6.85592,0
2256.27,6.93699,0
2272.74,7.01553,0
2289.21,7.09141,0
2305.68,7.16452,0
2322.14,7.23475,0
2338.61,7.30198,0
2355.08,7.36609,0
2371.55,7.42697,0
2388.02,7.48451,0
2404.49,7.53859,0
2420.96,7.58908,0
2437.43,7.63589,0
2453.9,7.67888,0
2470.37,7.71795,0
2486.84,7.75299,0
2503.3,7.78386,0
2519.77,7.81047,0
2536.24,7.83269,0
2552.71,7.85041,0
2569.18,7.86351,0
2585.65,7.87187,0
2602.12,7.87539,0
2618.59,7.87395,0
2635.06,7.86742,0
2651.53,7.8557,0
2668,7.83867,0
2684.46,7.81621,0
2700.93,7.78821,0
2717.4,7.75455,0
2733.87,7.71512,0
2750.34,7.6698,0
2766.81,7.61848,1
2783.28,7.5611,0
2799.75,7.49783,0
2816.22,7.42891,0
2832.69,7.35459,0
2849.16,7.27509,0
2865.62,7.19065,0
2882.09,7.10152,0
2898.56,7.00791,0
2915.03,6.91008,0
2931.5,6.80826,0
2947.97,6.70268,0
2964.44,6.59359,0
2980.91,6.48121,0
2997.38,6.36578,0
3013.85,6.24755,0
3030.32,6.12674,0
3046.79,6.0036,0
3063.25,5.87835,0
3079.72,5.75124,0
3096.19,5.62251,0
3112.66,5.49238,0
3129.13,5.3611,0
3145.6,5.2289,0
3162.07,5.09602,0
3178.54,4.96269,0
3195.01,4.82916,0
3211.48,4.69565,0
3227.95,4.56241,0
3244.41,4.42967,0
3260.88,4.29766,0
3277.35,4.16663,0
3293.82,4.03681,0
3310.29,3.90843,0
3326.76,3.78174,0
3343.23,3.65697,0
3359.7,3.53435,0
3376.17,3.41413,0
3392.64,3.29653,0
3409.11,3.1818,0
3425.57,3.07017,0
3442.04,2.96188,0
3458.51,2.85716,0
3474.98,2.75625,0
3491.45,2.65939,0
3507.92,2.56681,0
3524.39,2.47876,0
3540.86,2.39546,0
3557.33,2.31715,0
3573.8,2.24408,0
3590.27,2.17646,0
3606.73,2.11456,0
3623.2,2.05859,0
3639.67,2.00879,0
3656.14,1.96541,0
3672.61,1.92867,0
3689.08,1.89882,1
3705.55,1.87601,0
3722.02,1.86009,0
3738.49,1.85081,0
3754.96,1.84794,0
3771.43,1.85124,0
3787.89,1.86047,0
3804.36,1.87539,0
3820.83,1.89578,0
3837.3,1.92138,0
3853.77,1.95197,0
3870.24,1.9873,0
3886.71,2.02713,0
3903.18,2.07124,0
3919.65,2.11938,0
3936.12,2.17131,0
3952.59,2.22679,0
3969.06,2.2856,0
3985.52,2.34748,0
4001.99,2.41221,0
4018.46,2.47954,0
4034.93,2.54925,0
4051.4,2.62108,0
4067.87,2.6948,0
4084.34,2.77018,0
4100.81,2.84698,0
4117.28,2.92495,0
4133.75,3.00387,0
4150.22,3.08349,0
4166.68,3.16357,0
4183.15,3.24389,0
4199.62,3.3242,0
4216.09,3.40426,0
4232.56,3.48383,0
4249.03,3.56268,0
4265.5,3.64058,0
4281.97,3.71727,0
4298.44,3.79254,0
4314.91,3.86612,0
4331.38,3.9378,0
4347.84,4.00733,0
4364.31,4.07448,0
4380.78,4.139,0
4397.25,4.20066,0
4413.72,4.25922,0
4430.19,4.31445,0
4446.66,4.3661,0
4463.13,4.41394,0
4479.6,4.45773,0
4496.07,4.49723,0
4512.54,4.53221,0
4529,4.56243,0
4545.47,4.58765,0
4561.94,4.60763,0
4578.41,4.62213,0
4594.88,4.63092,0
4611.35,4.63376,1
4627.82,4.63048,0
4644.29,4.6212,0
4660.76,4.60611,0
4677.23,4.58538,0
4693.7,4.55921,0
4710.16,4.52779,0
4726.63,4.4913,0
4743.1,4.44992,0
4759.57,4.40384,0
4776.04,4.35325,0
4792.51,4.29834,0
4808.98,4.23929,0
4825.45,4.17628,0
4841.92,4.10951,0
4858.39,4.03916,0
4874.86,3.96542,0
4891.33,3.88847,0
4907.79,3.8085,0
4924.26,3.72569,0
4940.73,3.64024,0
4957.2,3.55232,0
4973.67,3.46213,0
4990.14,3.36985,0
5006.61,3.27566,0
5023.08,3.17976,0
5039.55,3.08233,0
5056.02,2.98356,0
5072.49,2.88363,0
5088.95,2.78272,0
5105.42,2.68103,0
5121.89,2.57875,0
5138.36,2.47605,0
5154.83,2.37312,0
5171.3,2.27016,0
5187.77,2.16734,0
5204.24,2.06485,0
5220.71,1.96289,0
5237.18,1.86163,0
5253.65,1.76126,0
5270.11,1.66197,0
5286.58,1.56394,0
5303.05,1.46737,0
5319.52,1.37243,0
5335.99,1.27931,0
5352.46,1.18821,0
5368.93,1.0993,0
5385.4,1.01278,0
5401.87,0.928818,0
5418.34,0.847616,0
5434.81,0.769356,0
5451.27,0.694224,0
5467.74,0.622405,0
5484.21,0.554088,0
5500.68,0.489456,0
5517.15,0.428698,0
5533.62,0.372,1
5550.09,0.319499,0
5566.56,0.27114,0
5583.03,0.226822,0
5599.5,0.18644,0
5615.97,0.149891,0
5632.44,0.117073,0
5648.9,0.0878832,0
5665.37,0.0622176,0
5681.84,0.0399735,0
5698.31,0.021048,0
5714.78,0.00533807,0
5731.25,-0.00725942,0
5747.72,-0.0168474,0
5764.19,-0.023529,0
5780.66,-0.0274071,0
5797.13,-0.0285848,0
5813.6,-0.0271651,0
5830.06,-0.0232511,0
5846.53,-0.0169457,0
5863,-0.00835199,0
5879.47,0.00242703,0
5895.94,0.0152883,0
5912.41,0.0301289,0
5928.88,0.0468457,0
5945.35,0.0653357,0
5961.82,0.0854959,0
5978.29,0.107223,0
5994.76,0.130415,0
6011.22,0.154968,0
6027.69,0.180778,0
6044.16,0.207744,0
6060.63,0.235762,0
6077.1,0.264729,0
6093.57,0.294542,0
6110.04,0.325098,0
6126.51,0.356294,0
6142.98,0.388027,0
6159.45,0.420194,0
6175.92,0.452692,0
6192.38,0.485418,0
6208.85,0.518268,0
6225.32,0.551141,0
6241.79,0.583932,0
6258.26,0.616539,0
6274.73,0.648859,0
6291.2,0.680789,0
6307.67,0.712225,0
6324.14,0.743065,0
6340.61,0.773206,0
6357.08,0.802545,0
6373.54,0.830978,0
6390.01,0.858403,0
6406.48,0.884716,0
6422.95,0.909815,0
6439.42,0.933597,0
6455.89,0.955958,1
6472.36,0.97682,0
6488.83,0.996203,0
6505.3,1.01415,0
6521.77,1.03071,0
6538.24,1.04592,0
6554.71,1.05983,0
6571.17,1.07248,0
6587.64,1.08392,0
6604.11,1.09419,0
6620.58,1.10333,0
6637.05,1.1114,0
6653.52,1.11842,0
6669.99,1.12446,0
6686.46,1.12955,0
6702.93,1.13373,0
6719.4,1.13705,0
6735.87,1.13956,0
6752.33,1.1413,0
6768.8,1.14232,0
6785.27,1.14265,0
6801.74,1.14234,0
6818.21,1.14144,0
6834.68,1.13999,0
6851.15,1.13804,0
6867.62,1.13562,0
6884.09,1.13279,0
6900.56,1.12959,0
6917.03,1.12606,0
6933.49,1.12225,0
6949.96,1.11819,0
6966.43,1.11395,0
6982.9,1.10955,0
6999.37,1.10504,0
7015.84,1.10048,0
7032.31,1.09589,0
7048.78,1.09134,0
7065.25,1.08685,0
7081.72,1.08248,0
7098.19,1.07827,0
7114.65,1.07426,0
7131.12,1.0705,0
7147.59,1.06703,0
7164.06,1.0639,0
7180.53,1.06115,0
7197,1.05882,0
7213.47,1.05697,0
7229.94,1.05563,0
7246.41,1.05484,0
7262.88,1.05466,0
7279.35,1.05513,0
7295.81,1.05628,0
7312.28,1.05818,0
7328.75,1.06085,0
7345.22,1.06434,0
7361.69,1.06871,0
7378.16,1.07398,1
7394.63,1.08814,0
7411.1,1.10354,0
7427.57,1.12018,0
7444.04,1.13801,0
7460.51,1.15704,0
7476.98,1.17723,0
7493.44,1.19856,0
7509.91,1.22103,0
7526.38,1.24459,0
7542.85,1.26925,0
7559.32,1.29497,0
7575.79,1.32173,0
7592.26,1.34952,0
7608.73,1.37832,0
7625.2,1.4081,0
7641.67,1.43885,0
7658.14,1.47054,0
7674.6,1.50315,0
7691.07,1.53667,0
7707.54,1.57108,0
7724.01,1.60635,0
7740.48,1.64246,0
7756.95,1.6794,0
7773.42,1.71714,0
7789.89,1.75567,0
7806.36,1.79496,0
7822.83,1.835,0
7839.3,1.87576,0
7855.76,1.91722,0
7872.23,1.95937,0
7888.7,2.00218,0
7905.17,2.04563,0
7921.64,2.08971,0
7938.11,2.13439,0
7954.58,2.17965,0
7971.05,2.22547,0
7987.52,2.27184,0
8003.99,2.31873,0
8020.46,2.36613,0
8036.92,2.414,0
8053.39,2.46234,0
8069.86,2.51112,0
8086.33,2.56033,0
8102.8,2.60993,0
8119.27,2.65992,0
8135.74,2.71027,0
8152.21,2.76096,0
8168.68,2.81198,0
8185.15,2.86329,0
8201.62,2.91489,0
8218.09,2.96674,0
8234.55,3.01884,0
8251.02,3.07116,0
8267.49,3.12368,0
8283.96,3.17639,0
8300.43,3.22925,0
8316.9,3.28225,0
8333.37,3.33538,0
8349.84,3.3886,0
8366.31,3.44191,0
8382.78,3.49527,0
8399.25,3.54868,0
8415.71,3.6021,1
