Dystans (m),Wysokosc (m),Wezel
0,1521.94,1
59.9514,1453.43,0
119.903,1386.11,0
179.854,1319.94,0
239.806,1254.94,0
299.757,1191.08,0
359.708,1128.36,0
419.66,1066.77,0
479.611,1006.29,0
539.562,946.927,0
599.514,888.66,0
659.465,831.483,0
719.417,775.385,0
779.368,720.359,0
839.319,666.394,0
899.271,613.481,0
959.222,561.611,0
1019.17,510.774,0
1079.12,460.961,0
1139.08,412.164,0
1199.03,364.372,0
1258.98,317.577,0
1318.93,271.769,0
1378.88,226.94,0
1438.83,183.081,0
1498.78,140.182,0
1558.74,98.2348,0
1618.69,57.23,0
1678.64,17.1589,0
1738.59,-21.9873,0
1798.54,-60.2175,0
1858.49,-97.5405,0
1918.44,-133.965,0
1978.4,-169.5,0
2038.35,-204.153,0
2098.3,-237.935,0
2158.25,-270.852,0
2218.2,-302.914,0
2278.15,-334.13,0
2338.1,-364.507,0
2398.06,-394.055,0
2458.01,-422.782,0
2517.96,-450.695,0
2577.91,-477.804,0
2637.86,-504.118,0
2697.81,-529.643,0
2757.76,-554.389,0
2817.72,-578.363,0
2877.67,-601.575,0
2937.62,-624.031,0
2997.57,-645.741,0
3057.52,-666.712,0
3117.47,-686.953,0
3177.42,-706.471,0
3237.37,-725.274,0
3297.33,-743.371,0
3357.28,-760.769,0
3417.23,-777.476,0
3477.18,-793.5,0
3537.13,-808.849,0
3597.08,-823.531,0
3657.03,-837.553,0
3716.99,-850.923,0
3776.94,-863.649,0
3836.89,-875.738,0
3896.84,-887.199,0
3956.79,-898.038,0
4016.74,-908.263,0
4076.69,-917.882,0
4136.65,-926.903,0
4196.6,-935.331,0
4256.55,-943.176,0
4316.5,-950.445,0
4376.45,-957.144,0
4436.4,-963.281,0
4496.35,-968.863,0
4556.31,-973.898,0
4616.26,-978.393,0
4676.21,-982.354,0
4736.16,-985.79,0
4796.11,-988.706,0
4856.06,-991.111,0
4916.01,-993.011,0
4975.96,-994.414,0
5035.92,-995.325,0
5095.87,-995.753,0
5155.82,-995.703,0
5215.77,-995.184,0
5275.72,-994.201,0
5335.67,-992.761,0
5395.62,-990.872,0
5455.58,-988.539,0
5515.53,-985.77,0
5575.48,-982.572,0
5635.43,-978.95,0
5695.38,-974.911,0
5755.33,-970.463,0
5815.28,-965.611,0
5875.24,-960.361,0
5935.19,-954.722,0
5995.14,-948.697,0
6055.09,-942.296,0
6115.04,-935.522,0
6174.99,-928.383,0
6234.94,-920.886,0
6294.9,-913.035,0
6354.85,-904.838,0
6414.8,-896.301,0
6474.75,-887.43,0
6534.7,-878.23,0
6594.65,-868.708,0
6654.6,-858.87,0
6714.55,-848.722,0
6774.51,-838.27,0
6834.46,-827.519,0
6894.41,-816.477,0
6954.36,-805.147,0
7014.31,-793.537,0
7074.26,-781.653,0
7134.21,-769.499,0
7194.17,-757.081,0
7254.12,-744.406,0
7314.07,-731.479,0
7374.02,-718.305,0
7433.97,-704.89,0
7493.92,-691.24,0
7553.87,-677.36,0
7613.83,-663.255,0
7673.78,-648.932,0
7733.73,-634.394,0
7793.68,-619.649,0
7853.63,-604.701,0
7913.58,-589.555,0
7973.53,-574.217,0
8033.49,-558.691,0
8093.44,-542.984,0
8153.39,-527.1,0
8213.34,-511.044,0
8273.29,-494.822,0
8333.24,-478.438,0
8393.19,-461.898,0
8453.15,-445.206,0
8513.1,-428.368,0
8573.05,-411.387,0
8633,-394.271,0
8692.95,-377.022,0
8752.9,-359.646,0
8812.85,-342.148,0
8872.8,-324.532,0
8932.76,-306.804,0
8992.71,-288.967,0
9052.66,-271.027,0
9112.61,-252.987,0
9172.56,-234.853,0
9232.51,-216.63,0
9292.46,-198.321,0
9352.42,-179.931,0
9412.37,-161.465,0
9472.32,-142.926,0
9532.27,-124.32,0
9592.22,-105.65,0
9652.17,-86.9219,0
9712.12,-68.1384,0
9772.08,-49.3043,0
9832.03,-30.4238,0
9891.98,-11.5011,0
9951.93,7.45985,0
10011.9,26.4548,0
10071.8,45.4798,0
10131.8,64.5309,0
10191.7,83.6039,0
10251.7,102.695,0
10311.6,121.8,0
10371.6,140.916,0
10431.5,160.038,0
10491.5,179.163,0
10551.4,198.286,0
10611.4,217.405,0
10671.3,236.515,0
10731.3,255.613,0
10791.2,274.695,0
10851.2,293.757,0
10911.2,312.796,0
10971.1,331.809,0
11031.1,350.792,0
11091,369.741,0
11151,388.654,0
11210.9,407.526,0
11270.9,426.354,0
11330.8,445.135,0
11390.8,463.866,0
11450.7,482.543,0
11510.7,501.164,0
11570.6,519.724,0
11630.6,538.222,0
11690.5,556.653,0
11750.5,575.015,0
11810.4,593.304,0
11870.4,611.518,0
11930.3,629.654,0
11990.3,647.708,0
12050.2,665.679,0
12110.2,683.562,0
12170.1,701.355,0
12230.1,719.055,0
12290,736.66,0
12350,754.167,0
12409.9,771.573,0
12469.9,788.875,0
12529.8,806.071,0
12589.8,823.159,0
12649.7,840.135,0
12709.7,856.996,0
12769.6,873.742,0
12829.6,890.369,0
12889.5,906.874,0
12949.5,923.256,0
13009.5,939.511,0
13069.4,955.639,0
13129.4,971.636,0
13189.3,987.499,0
13249.3,1003.23,0
13309.2,1018.82,1
13369.2,1034.27,0
13429.1,1049.58,0
13489.1,1064.75,0
13549,1079.77,0
13609,1094.64,0
13668.9,1109.37,0
13728.9,1123.94,0
13788.8,1138.36,0
13848.8,1152.62,0
13908.7,1166.73,0
13968.7,1180.68,0
14028.6,1194.46,0
14088.6,1208.09,0
14148.5,1221.55,0
14208.5,1234.84,0
14268.4,1247.97,0
14328.4,1260.93,0
14388.3,1273.71,0
14448.3,1286.33,0
14508.2,1298.77,0
14568.2,1311.04,0
14628.1,1323.12,1
14688.1,1335.04,0
14748,1346.77,0
14808,1358.32,0
14867.9,1369.69,0
14927.9,1380.88,0
14987.8,1391.88,0
15047.8,1402.7,0
15107.7,1413.33,0
15167.7,1423.77,0
15227.7,1434.03,0
15287.6,1444.09,0
15347.6,1453.96,0
15407.5,1463.65,0
15467.5,1473.14,0
15527.4,1482.43,0
15587.4,1491.53,0
15647.3,1500.44,0
15707.3,1509.15,0
15767.2,1517.66,0
15827.2,1525.97,0
15887.1,1534.09,0
15947.1,1542.01,0
16007,1549.73,0
16067,1557.24,0
16126.9,1564.56,0
16186.9,1571.68,0
16246.8,1578.59,0
16306.8,1585.3,0
16366.7,1591.81,0
16426.7,1598.12,0
16486.6,1604.22,0
16546.6,1610.12,0
16606.5,1615.81,0
16666.5,1621.31,0
16726.4,1626.59,0
16786.4,1631.67,0
16846.3,1636.55,0
16906.3,1641.22,0
16966.2,1645.69,0
17026.2,1649.96,0
17086.1,1654.01,0
17146.1,1657.87,0
17206,1661.52,0
17266,1664.96,0
17325.9,1668.2,0
17385.9,1671.23,0
17445.9,1674.06,0
17505.8,1676.69,0
17565.8,1679.11,0
17625.7,1681.33,0
17685.7,1683.35,0
17745.6,1685.16,0
17805.6,1686.77,0
17865.5,1688.18,0
17925.5,1689.39,0
17985.4,1690.4,0
18045.4,1691.21,0
18105.3,1691.82,0
18165.3,1692.22,0
18225.2,1692.44,0
18285.2,1692.45,0
18345.1,1692.26,0
18405.1,1691.88,0
18465,1691.31,0
18525,1690.54,0
18584.9,1689.57,0
18644.9,1688.42,0
18704.8,1687.07,0
18764.8,1685.53,0
18824.7,1683.8,0
18884.7,1681.88,0
18944.6,1679.78,0
19004.6,1677.49,0
19064.5,1675.01,0
19124.5,1672.35,0
19184.4,1669.5,0
19244.4,1666.47,0
19304.3,1663.27,0
19364.3,1659.88,0
19424.2,1656.31,0
19484.2,1652.57,0
19544.2,1648.66,0
19604.1,1644.56,0
19664.1,1640.3,0
19724,1635.87,0
19784,1631.27,0
19843.9,1626.5,0
19903.9,1621.56,0
19963.8,1616.46,0
20023.8,1611.2,0
20083.7,1605.77,0
20143.7,1600.19,0
20203.6,1594.45,0
20263.6,1588.56,0
20323.5,1582.51,0
20383.5,1576.31,0
20443.4,1569.96,0
20503.4,1563.46,0
20563.3,1556.82,0
20623.3,1550.03,0
20683.2,1543.1,0
20743.2,1536.03,0
20803.1,1528.83,0
20863.1,1521.49,0
20923,1514.01,0
20983,1506.41,0
21042.9,1498.67,0
21102.9,1490.82,0
21162.8,1482.83,0
21222.8,1474.73,0
21282.7,1466.5,0
21342.7,1458.16,0
21402.6,1449.71,0
21462.6,1441.15,0
21522.5,1432.47,0
21582.5,1423.69,0
21642.4,1414.81,0
21702.4,1405.82,0
21762.4,1396.74,0
21822.3,1387.56,0
21882.3,1378.29,0
21942.2,1368.92,0
22002.2,1359.48,0
22062.1,1349.94,0
22122.1,1340.33,0
22182,1330.63,0
22242,1320.86,0
22301.9,1311.02,0
22361.9,1301.11,0
22421.8,1291.14,0
22481.8,1281.09,0
22541.7,1270.99,0
22601.7,1260.84,0
22661.6,1250.63,0
22721.6,1240.36,0
22781.5,1230.05,0
22841.5,1219.7,0
22901.4,1209.31,0
22961.4,1198.88,0
23021.3,1188.41,0
23081.3,1177.92,0
23141.2,1167.4,0
23201.2,1156.86,0
23261.1,1146.29,0
23321.1,1135.71,0
23381,1125.12,0
23441,1114.52,0
23500.9,1103.91,0
23560.9,1093.31,0
23620.8,1082.7,0
23680.8,1072.1,0
23740.7,1061.51,0
23800.7,1050.94,0
23860.7,1040.38,0
23920.6,1029.85,0
23980.6,1019.34,0
24040.5,1008.86,0
24100.5,998.418,0
24160.4,988.011,0
24220.4,977.646,0
24280.3,967.328,0
24340.3,957.06,0
24400.2,946.847,0
24460.2,936.692,0
24520.1,926.601,0
24580.1,916.577,0
24640,906.626,0
24700,896.75,0
24759.9,886.955,0
24819.9,877.246,0
24879.8,867.626,0
24939.8,858.1,0
24999.7,848.673,0
25059.7,839.35,0
25119.6,830.134,0
25179.6,821.031,0
25239.5,812.046,0
25299.5,803.183,0
25359.4,794.446,0
25419.4,785.842,0
25479.3,777.374,0
25539.3,769.047,0
25599.2,760.867,0
25659.2,752.838,0
25719.1,744.965,0
25779.1,737.254,0
25839,729.709,0
25899,722.336,0
25958.9,715.139,0
26018.9,708.123,0
26078.9,701.295,0
26138.8,694.659,0
26198.8,688.22,0
26258.7,681.984,0
26318.7,675.956,0
26378.6,670.141,0
26438.6,664.546,0
26498.5,659.174,0
26558.5,654.032,0
26618.4,649.125,0
26678.4,644.459,0
26738.3,640.039,0
26798.3,635.872,0
26858.2,631.961,0
26918.2,628.314,0
26978.1,624.936,0
27038.1,621.832,0
27098,619.009,0
27158,616.472,0
27217.9,614.228,0
27277.9,612.281,0
27337.8,610.638,0
27397.8,609.305,0
27457.7,608.288,0
27517.7,607.593,0
27577.6,607.226,0
27637.6,607.192,0
27697.5,607.499,0
27757.5,608.152,0
27817.4,609.158,0
27877.4,610.522,0
27937.3,612.252,0
27997.3,614.352,0
28057.2,616.831,0
28117.2,619.693,0
28177.2,622.945,0
28237.1,626.595,0
28297.1,630.647,0
28357,635.11,0
28417,639.989,0
28476.9,645.29,0
28536.9,651.022,0
28596.8,657.189,0
28656.8,663.799,0
28716.7,670.859,0
28776.7,678.375,0
28836.6,686.354,0
28896.6,694.804,0
28956.5,703.729,0
29016.5,713.139,0
29076.4,723.039,0
29136.4,733.437,0
29196.3,744.339,0
29256.3,755.752,0
29316.2,767.684,0
29376.2,780.142,1
29436.1,793.133,0
29496.1,806.664,0
29556,820.741,0
29616,835.374,0
29675.9,850.567,0
29735.9,866.33,0
29795.8,882.669,0
29855.8,899.592,0
29915.7,917.106,0
29975.7,935.219,0
30035.6,953.937,0
30095.6,973.269,0
30155.5,993.222,0
30215.5,1013.8,0
30275.4,1035.02,0
30335.4,1056.88,0
30395.4,1079.4,0
30455.3,1102.57,0
30515.3,1126.41,0
30575.2,1150.92,0
30635.2,1176.12,1
