Dystans (m),Wysokosc (m),Wezel
0,1521.94,1
59.9514,1504.56,0
119.903,1487.52,0
179.854,1470.82,0
239.806,1454.46,0
299.757,1438.44,0
359.708,1422.75,0
419.66,1407.39,0
479.611,1392.36,0
539.562,1377.65,0
599.514,1363.27,0
659.465,1349.2,0
719.417,1335.44,0
779.368,1321.99,0
839.319,1308.86,0
899.271,1296.03,0
959.222,1283.5,0
1019.17,1271.27,0
1079.12,1259.34,0
1139.08,1247.7,0
1199.03,1236.35,0
1258.98,1225.29,0
1318.93,1214.52,0
1378.88,1204.03,0
1438.83,1193.81,0
1498.78,1183.88,0
1558.74,1174.21,0
1618.69,1164.82,0
1678.64,1155.69,0
1738.59,1146.83,0
1798.54,1138.24,0
1858.49,1129.9,0
1918.44,1121.81,0
1978.4,1113.99,0
2038.35,1106.41,0
2098.3,1099.08,0
2158.25,1091.99,0
2218.2,1085.15,0
2278.15,1078.55,0
2338.1,1072.19,0
2398.06,1066.06,0
2458.01,1060.16,0
2517.96,1054.49,0
2577.91,1049.05,0
2637.86,1043.83,0
2697.81,1038.84,0
2757.76,1034.06,0
2817.72,1029.5,0
2877.67,1025.15,0
2937.62,1021.01,0
2997.57,1017.08,0
3057.52,1013.36,0
3117.47,1009.84,0
3177.42,1006.52,0
3237.37,1003.4,0
3297.33,1000.48,0
3357.28,997.744,0
3417.23,995.202,0
3477.18,992.848,0
3537.13,990.68,0
3597.08,988.696,0
3657.03,986.892,0
3716.99,985.266,0
3776.94,983.816,0
3836.89,982.539,0
3896.84,981.434,0
3956.79,980.497,0
4016.74,979.726,0
4076.69,979.12,0
4136.65,978.675,0
4196.6,978.389,0
4256.55,978.259,0
4316.5,978.285,0
4376.45,978.462,0
4436.4,978.79,0
4496.35,979.265,0
4556.31,979.886,0
4616.26,980.649,0
4676.21,981.554,0
4736.16,982.597,0
4796.11,983.776,0
4856.06,985.089,0
4916.01,986.535,0
4975.96,988.11,0
5035.92,989.813,0
5095.87,991.641,0
5155.82,993.592,0
5215.77,995.664,0
5275.72,997.856,0
5335.67,1000.16,0
5395.62,1002.59,0
5455.58,1005.12,0
5515.53,1007.77,0
5575.48,1010.52,0
5635.43,1013.38,0
5695.38,1016.35,0
5755.33,1019.42,0
5815.28,1022.58,0
5875.24,1025.85,0
5935.19,1029.21,0
5995.14,1032.67,0
6055.09,1036.21,0
6115.04,1039.85,0
6174.99,1043.58,0
6234.94,1047.39,0
6294.9,1051.29,0
6354.85,1055.27,0
6414.8,1059.33,0
6474.75,1063.47,0
6534.7,1067.69,0
6594.65,1071.98,0
6654.6,1076.34,0
6714.55,1080.78,0
6774.51,1085.28,0
6834.46,1089.85,0
6894.41,1094.49,0
6954.36,1099.19,0
7014.31,1103.95,0
7074.26,1108.78,0
7134.21,1113.66,0
7194.17,1118.6,0
7254.12,1123.59,0
7314.07,1128.64,0
7374.02,1133.73,0
7433.97,1138.88,0
7493.92,1144.08,0
7553.87,1149.32,0
7613.83,1154.61,1
7673.78,1159.94,0
7733.73,1165.31,0
7793.68,1170.72,0
7853.63,1176.17,0
7913.58,1181.65,0
7973.53,1187.17,0
8033.49,1192.73,0
8093.44,1198.31,0
8153.39,1203.93,0
8213.34,1209.57,0
8273.29,1215.24,0
8333.24,1220.94,0
8393.19,1226.65,0
8453.15,1232.4,0
8513.1,1238.16,0
8573.05,1243.94,0
8633,1249.74,0
8692.95,1255.56,0
8752.9,1261.39,0
8812.85,1267.23,0
8872.8,1273.09,0
8932.76,1278.96,0
8992.71,1284.83,0
9052.66,1290.72,0
9112.61,1296.61,0
9172.56,1302.5,0
9232.51,1308.4,0
9292.46,1314.3,0
9352.42,1320.2,0
9412.37,1326.1,0
9472.32,1332,0
9532.27,1337.9,0
9592.22,1343.79,0
9652.17,1349.68,0
9712.12,1355.56,0
9772.08,1361.43,0
9832.03,1367.29,0
9891.98,1373.14,0
9951.93,1378.98,0
10011.9,1384.81,0
10071.8,1390.62,0
10131.8,1396.42,0
10191.7,1402.2,0
10251.7,1407.96,0
10311.6,1413.7,0
10371.6,1419.43,0
10431.5,1425.13,0
10491.5,1430.8,0
10551.4,1436.46,0
10611.4,1442.09,0
10671.3,1447.69,0
10731.3,1453.27,0
10791.2,1458.82,0
10851.2,1464.34,0
10911.2,1469.83,0
10971.1,1475.29,0
11031.1,1480.72,0
11091,1486.12,0
11151,1491.48,0
11210.9,1496.8,0
11270.9,1502.09,0
11330.8,1507.34,0
11390.8,1512.56,0
11450.7,1517.73,0
11510.7,1522.87,0
11570.6,1527.97,0
11630.6,1533.02,0
11690.5,1538.03,0
11750.5,1543,0
11810.4,1547.92,0
11870.4,1552.8,0
11930.3,1557.63,0
11990.3,1562.42,0
12050.2,1567.15,0
12110.2,1571.84,0
12170.1,1576.48,0
12230.1,1581.07,0
12290,1585.61,0
12350,1590.1,0
12409.9,1594.53,0
12469.9,1598.91,0
12529.8,1603.24,0
12589.8,1607.52,0
12649.7,1611.74,0
12709.7,1615.9,0
12769.6,1620,0
12829.6,1624.05,0
12889.5,1628.04,0
12949.5,1631.97,0
13009.5,1635.85,0
13069.4,1639.66,0
13129.4,1643.41,0
13189.3,1647.1,0
13249.3,1650.73,0
13309.2,1654.3,0
13369.2,1657.81,0
13429.1,1661.25,0
13489.1,1664.63,0
13549,1667.94,0
13609,1671.19,0
13668.9,1674.37,0
13728.9,1677.49,0
13788.8,1680.54,0
13848.8,1683.52,0
13908.7,1686.43,0
13968.7,1689.28,0
14028.6,1692.06,0
14088.6,1694.77,0
14148.5,1697.42,0
14208.5,1699.99,0
14268.4,1702.49,0
14328.4,1704.92,0
14388.3,1707.28,0
14448.3,1709.57,0
14508.2,1711.79,0
14568.2,1713.94,0
14628.1,1716.02,0
14688.1,1718.02,0
14748,1719.95,0
14808,1721.81,0
14867.9,1723.59,0
14927.9,1725.3,0
14987.8,1726.94,0
15047.8,1728.5,0
15107.7,1729.99,0
15167.7,1731.41,0
15227.7,1732.75,1
15287.6,1734.01,0
15347.6,1735.2,0
15407.5,1736.32,0
15467.5,1737.36,0
15527.4,1738.32,0
15587.4,1739.21,0
15647.3,1740.02,0
15707.3,1740.76,0
15767.2,1741.42,0
15827.2,1742,0
15887.1,1742.51,0
15947.1,1742.95,0
16007,1743.3,0
16067,1743.58,0
16126.9,1743.79,0
16186.9,1743.91,0
16246.8,1743.96,0
16306.8,1743.94,0
16366.7,1743.84,0
16426.7,1743.66,0
16486.6,1743.41,0
16546.6,1743.08,0
16606.5,1742.67,0
16666.5,1742.19,0
16726.4,1741.63,0
16786.4,1740.99,0
16846.3,1740.28,0
16906.3,1739.5,0
16966.2,1738.64,0
17026.2,1737.7,0
17086.1,1736.69,0
17146.1,1735.6,0
17206,1734.44,0
17266,1733.2,0
17325.9,1731.89,0
17385.9,1730.5,0
17445.9,1729.04,0
17505.8,1727.51,0
17565.8,1725.9,0
17625.7,1724.22,0
17685.7,1722.47,0
17745.6,1720.64,0
17805.6,1718.74,0
17865.5,1716.77,0
17925.5,1714.73,0
17985.4,1712.62,0
18045.4,1710.43,0
18105.3,1708.17,0
18165.3,1705.85,0
18225.2,1703.45,0
18285.2,1700.98,0
18345.1,1698.45,0
18405.1,1695.84,0
18465,1693.17,0
18525,1690.43,0
18584.9,1687.62,0
18644.9,1684.74,0
18704.8,1681.8,0
18764.8,1678.79,0
18824.7,1675.71,0
18884.7,1672.57,0
18944.6,1669.37,0
19004.6,1666.1,0
19064.5,1662.77,0
19124.5,1659.37,0
19184.4,1655.91,0
19244.4,1652.39,0
19304.3,1648.81,0
19364.3,1645.17,0
19424.2,1641.47,0
19484.2,1637.7,0
19544.2,1633.88,0
19604.1,1630,0
19664.1,1626.07,0
19724,1622.07,0
19784,1618.02,0
19843.9,1613.92,0
19903.9,1609.75,0
19963.8,1605.54,0
20023.8,1601.27,0
20083.7,1596.95,0
20143.7,1592.58,0
20203.6,1588.15,0
20263.6,1583.68,0
20323.5,1579.15,0
20383.5,1574.58,0
20443.4,1569.96,0
20503.4,1565.29,0
20563.3,1560.58,0
20623.3,1555.82,0
20683.2,1551.01,0
20743.2,1546.16,0
20803.1,1541.27,0
20863.1,1536.34,0
20923,1531.36,0
20983,1526.34,0
21042.9,1521.29,0
21102.9,1516.2,0
21162.8,1511.07,0
21222.8,1505.9,0
21282.7,1500.7,0
21342.7,1495.46,0
21402.6,1490.19,0
21462.6,1484.88,0
21522.5,1479.55,0
21582.5,1474.18,0
21642.4,1468.79,0
21702.4,1463.36,0
21762.4,1457.91,0
21822.3,1452.43,0
21882.3,1446.93,0
21942.2,1441.4,0
22002.2,1435.85,0
22062.1,1430.28,0
22122.1,1424.69,0
22182,1419.08,0
22242,1413.45,0
22301.9,1407.8,0
22361.9,1402.13,0
22421.8,1396.45,0
22481.8,1390.76,0
22541.7,1385.06,0
22601.7,1379.34,0
22661.6,1373.61,0
22721.6,1367.88,0
22781.5,1362.13,0
22841.5,1356.38,1
22901.4,1350.63,0
22961.4,1344.87,0
23021.3,1339.11,0
23081.3,1333.35,0
23141.2,1327.59,0
23201.2,1321.82,0
23261.1,1316.07,0
23321.1,1310.31,0
23381,1304.57,0
23441,1298.83,0
23500.9,1293.1,0
23560.9,1287.37,0
23620.8,1281.66,0
23680.8,1275.96,0
23740.7,1270.28,0
23800.7,1264.61,0
23860.7,1258.96,0
23920.6,1253.33,0
23980.6,1247.72,0
24040.5,1242.12,0
24100.5,1236.56,0
24160.4,1231.01,0
24220.4,1225.5,0
24280.3,1220.01,0
24340.3,1214.55,0
24400.2,1209.12,0
24460.2,1203.72,0
24520.1,1198.36,0
24580.1,1193.03,0
24640,1187.74,0
24700,1182.49,0
24759.9,1177.27,0
24819.9,1172.11,0
24879.8,1166.98,0
24939.8,1161.9,0
24999.7,1156.87,0
25059.7,1151.88,0
25119.6,1146.95,0
25179.6,1142.07,0
25239.5,1137.24,0
25299.5,1132.47,0
25359.4,1127.76,0
25419.4,1123.11,0
25479.3,1118.51,0
25539.3,1113.98,0
25599.2,1109.52,0
25659.2,1105.12,0
25719.1,1100.79,0
25779.1,1096.53,0
25839,1092.34,0
25899,1088.23,0
25958.9,1084.19,0
26018.9,1080.23,0
26078.9,1076.35,0
26138.8,1072.55,0
26198.8,1068.83,0
26258.7,1065.2,0
26318.7,1061.66,0
26378.6,1058.2,0
26438.6,1054.84,0
26498.5,1051.57,0
26558.5,1048.39,0
26618.4,1045.32,0
26678.4,1042.34,0
26738.3,1039.46,0
26798.3,1036.69,0
26858.2,1034.02,0
26918.2,1031.46,0
26978.1,1029,0
27038.1,1026.66,0
27098,1024.44,0
27158,1022.33,0
27217.9,1020.33,0
27277.9,1018.46,0
27337.8,1016.71,0
27397.8,1015.08,0
27457.7,1013.58,0
27517.7,1012.21,0
27577.6,1010.97,0
27637.6,1009.86,0
27697.5,1008.89,0
27757.5,1008.06,0
27817.4,1007.36,0
27877.4,1006.81,0
27937.3,1006.4,0
27997.3,1006.13,0
28057.2,1006.02,0
28117.2,1006.06,0
28177.2,1006.25,0
28237.1,1006.59,0
28297.1,1007.1,0
28357,1007.76,0
28417,1008.59,0
28476.9,1009.58,0
28536.9,1010.74,0
28596.8,1012.07,0
28656.8,1013.57,0
28716.7,1015.25,0
28776.7,1017.1,0
28836.6,1019.13,0
28896.6,1021.35,0
28956.5,1023.75,0
29016.5,1026.33,0
29076.4,1029.11,0
29136.4,1032.08,0
29196.3,1035.24,0
29256.3,1038.6,0
29316.2,1042.15,0
29376.2,1045.91,0
29436.1,1049.88,0
29496.1,1054.05,0
29556,1058.43,0
29616,1063.02,0
29675.9,1067.83,0
29735.9,1072.85,0
29795.8,1078.1,0
29855.8,1083.57,0
29915.7,1089.26,0
29975.7,1095.18,0
30035.6,1101.33,0
30095.6,1107.71,0
30155.5,1114.34,0
30215.5,1121.19,0
30275.4,1128.3,0
30335.4,1135.64,0
30395.4,1143.23,0
30455.3,1151.07,0
30515.3,1159.17,0
30575.2,1167.51,0
30635.2,1176.12,1
