Dystans (m),Wysokosc (m),Wezel
0,520.283,1
4.85043,520.354,0
9.70085,520.426,0
14.5513,520.499,0
19.4017,520.571,0
24.2521,520.644,0
29.1026,520.718,0
33.953,520.793,0
38.8034,520.869,0
43.6538,520.946,1
48.5043,522.053,0
53.3547,523.178,0
58.2051,524.32,0
63.0555,525.479,0
67.906,526.656,0
72.7564,527.851,0
77.6068,529.064,0
82.4572,530.294,0
87.3077,531.543,0
92.1581,532.809,0
97.0085,534.094,0
101.859,535.397,0
106.709,536.718,0
111.56,538.057,0
116.41,539.416,0
121.261,540.792,0
126.111,542.188,0
130.961,543.602,0
135.812,545.035,0
140.662,546.486,0
145.513,547.957,0
150.363,549.447,0
155.214,550.957,0
160.064,552.485,0
164.914,554.033,0
169.765,555.6,0
174.615,557.187,0
179.466,558.794,0
184.316,560.42,0
189.167,562.066,0
194.017,563.732,0
198.867,565.418,0
203.718,567.124,0
208.568,568.85,0
213.419,570.597,0
218.269,572.364,0
223.12,574.151,0
227.97,575.959,0
232.82,577.787,0
237.671,579.636,0
242.521,581.506,0
247.372,583.397,0
252.222,585.309,0
257.073,587.242,0
261.923,589.196,0
266.773,591.171,0
271.624,593.167,0
276.474,595.185,0
281.325,597.225,0
286.175,599.286,0
291.026,601.368,0
295.876,603.473,0
300.726,605.599,0
305.577,607.747,0
310.427,609.918,0
315.278,612.11,0
320.128,614.325,0
324.979,616.562,0
329.829,618.821,0
334.679,621.102,0
339.53,623.407,0
344.38,625.734,0
349.231,628.083,0
354.081,630.456,0
358.932,632.851,0
363.782,635.27,0
368.632,637.711,0
373.483,640.176,0
378.333,642.664,0
383.184,645.175,0
388.034,647.71,0
392.884,650.268,0
397.735,652.85,0
402.585,655.455,0
407.436,658.084,0
412.286,660.738,0
417.137,663.415,0
421.987,666.116,0
426.837,668.841,0
431.688,671.591,0
436.538,674.365,0
441.389,677.163,0
446.239,679.986,0
451.09,682.834,0
455.94,685.706,0
460.79,688.603,0
465.641,691.525,0
470.491,694.471,0
475.342,697.443,0
480.192,700.44,0
485.043,703.462,0
489.893,706.509,0
494.743,709.582,0
499.594,712.68,0
504.444,715.804,0
509.295,718.953,0
514.145,722.128,0
518.996,725.329,0
523.846,728.556,0
528.696,731.809,0
533.547,735.088,0
538.397,738.393,0
543.248,741.724,0
548.098,745.082,0
552.949,748.466,0
557.799,751.877,0
562.649,755.314,0
567.5,758.779,0
572.35,762.269,0
577.201,765.787,0
582.051,769.332,0
586.902,772.904,0
591.752,776.502,0
596.602,780.129,0
601.453,783.782,0
606.303,787.463,0
611.154,791.171,0
616.004,794.907,0
620.855,798.671,1
625.705,800.819,0
630.555,802.984,0
635.406,805.165,0
640.256,807.356,0
645.107,809.554,0
649.957,811.756,0
654.807,813.957,0
659.658,816.154,0
664.508,818.343,0
669.359,820.521,0
674.209,822.683,0
679.06,824.826,0
683.91,826.947,0
688.76,829.041,0
693.611,831.105,0
698.461,833.136,0
703.312,835.129,0
708.162,837.08,0
713.013,838.986,0
717.863,840.844,0
722.713,842.649,0
727.564,844.398,0
732.414,846.087,0
737.265,847.713,0
742.115,849.271,0
746.966,850.758,0
751.816,852.171,0
756.666,853.505,0
761.517,854.756,0
766.367,855.922,0
771.218,856.998,0
776.068,857.981,0
780.919,858.866,0
785.769,859.651,0
790.619,860.331,0
795.47,860.903,0
800.32,861.363,0
805.171,861.708,0
810.021,861.933,0
814.872,862.034,0
819.722,862.009,0
824.572,861.854,0
829.423,861.564,0
834.273,861.136,0
839.124,860.566,0
843.974,859.851,0
848.825,858.987,0
853.675,857.97,0
858.525,856.796,0
863.376,855.462,0
868.226,853.964,0
873.077,852.298,0
877.927,850.46,1
882.778,851.627,0
887.628,852.708,0
892.478,853.705,0
897.329,854.618,0
902.179,855.448,0
907.03,856.195,0
911.88,856.861,0
916.73,857.446,0
921.581,857.95,0
926.431,858.375,0
931.282,858.722,0
936.132,858.99,0
940.983,859.181,0
945.833,859.295,0
950.683,859.333,0
955.534,859.296,0
960.384,859.184,0
965.235,858.998,0
970.085,858.74,0
974.936,858.409,0
979.786,858.006,0
984.636,857.532,0
989.487,856.988,0
994.337,856.374,0
999.188,855.692,0
1004.04,854.941,0
1008.89,854.123,0
1013.74,853.238,0
1018.59,852.287,1
1023.44,849.987,0
1028.29,847.735,0
1033.14,845.531,0
1037.99,843.374,0
1042.84,841.264,0
1047.69,839.2,0
1052.54,837.182,0
1057.39,835.209,0
1062.24,833.282,0
1067.09,831.4,0
1071.94,829.561,0
1076.79,827.767,0
1081.64,826.016,0
1086.5,824.308,0
1091.35,822.642,0
1096.2,821.018,0
1101.05,819.437,0
1105.9,817.896,0
1110.75,816.396,0
1115.6,814.937,0
1120.45,813.518,0
1125.3,812.138,0
1130.15,810.797,0
1135,809.495,0
1139.85,808.231,0
1144.7,807.005,0
1149.55,805.816,0
1154.4,804.664,0
1159.25,803.549,0
1164.1,802.47,0
1168.95,801.427,0
1173.8,800.419,0
1178.65,799.445,0
1183.5,798.506,0
1188.35,797.601,0
1193.2,796.73,0
1198.06,795.891,0
1202.91,795.086,0
1207.76,794.312,0
1212.61,793.571,0
1217.46,792.86,0
1222.31,792.181,0
1227.16,791.532,0
1232.01,790.913,0
1236.86,790.324,0
1241.71,789.764,0
1246.56,789.233,0
1251.41,788.731,0
1256.26,788.256,0
1261.11,787.809,0
1265.96,787.389,0
1270.81,786.995,0
1275.66,786.628,0
1280.51,786.287,0
1285.36,785.97,0
1290.21,785.679,0
1295.06,785.413,0
1299.91,785.17,0
1304.76,784.951,0
1309.61,784.756,0
1314.47,784.583,0
1319.32,784.433,0
1324.17,784.304,0
1329.02,784.197,0
1333.87,784.111,0
1338.72,784.046,0
1343.57,784.001,0
1348.42,783.976,0
1353.27,783.97,0
1358.12,783.983,0
1362.97,784.014,0
1367.82,784.064,0
1372.67,784.131,0
1377.52,784.216,0
1382.37,784.317,0
1387.22,784.435,0
1392.07,784.568,0
1396.92,784.718,0
1401.77,784.882,0
1406.62,785.061,0
1411.47,785.254,0
1416.32,785.461,0
1421.17,785.681,0
1426.03,785.914,0
1430.88,786.159,0
1435.73,786.417,0
1440.58,786.687,0
1445.43,786.967,0
1450.28,787.258,0
1455.13,787.56,0
1459.98,787.872,0
1464.83,788.193,0
1469.68,788.523,0
1474.53,788.862,0
1479.38,789.209,0
1484.23,789.564,0
1489.08,789.926,0
1493.93,790.295,0
1498.78,790.671,0
1503.63,791.053,0
1508.48,791.44,0
1513.33,791.832,0
1518.18,792.23,0
1523.03,792.631,0
1527.88,793.037,0
1532.73,793.446,0
1537.58,793.858,0
1542.44,794.273,0
1547.29,794.69,0
1552.14,795.109,0
1556.99,795.529,0
1561.84,795.95,0
1566.69,796.371,0
1571.54,796.793,0
1576.39,797.214,0
1581.24,797.634,0
1586.09,798.053,0
1590.94,798.471,0
1595.79,798.886,0
1600.64,799.299,0
1605.49,799.709,0
1610.34,800.116,0
1615.19,800.519,0
1620.04,800.917,0
1624.89,801.311,0
1629.74,801.7,0
1634.59,802.083,0
1639.44,802.461,0
1644.29,802.832,0
1649.14,803.196,0
1654,803.553,0
1658.85,803.902,0
1663.7,804.243,0
1668.55,804.576,0
1673.4,804.899,0
1678.25,805.214,0
1683.1,805.518,0
1687.95,805.813,0
1692.8,806.096,0
1697.65,806.369,0
1702.5,806.63,0
1707.35,806.879,0
1712.2,807.115,0
1717.05,807.339,0
1721.9,807.55,0
1726.75,807.747,0
1731.6,807.93,0
1736.45,808.098,0
1741.3,808.251,0
1746.15,808.389,0
1751,808.511,0
1755.85,808.617,0
1760.7,808.706,0
1765.56,808.779,0
1770.41,808.833,0
1775.26,808.87,0
1780.11,808.888,0
1784.96,808.888,0
1789.81,808.868,0
1794.66,808.828,0
1799.51,808.769,0
1804.36,808.689,0
1809.21,808.587,0
1814.06,808.465,0
1818.91,808.321,0
1823.76,808.154,0
1828.61,807.965,0
1833.46,807.753,0
1838.31,807.517,0
1843.16,807.257,0
1848.01,806.973,0
1852.86,806.663,0
1857.71,806.329,0
1862.56,805.969,0
1867.41,805.583,0
1872.26,805.17,0
1877.11,804.731,0
1881.97,804.264,0
1886.82,803.769,0
1891.67,803.246,0
1896.52,802.694,0
1901.37,802.113,0
1906.22,801.503,0
1911.07,800.862,0
1915.92,800.191,0
1920.77,799.49,0
1925.62,798.757,0
1930.47,797.992,0
1935.32,797.195,1
1940.17,795.696,0
1945.02,794.242,0
1949.87,792.836,0
1954.72,791.483,0
1959.57,790.186,0
1964.42,788.949,0
1969.27,787.776,0
1974.12,786.671,0
1978.97,785.638,0
1983.82,784.68,0
1988.67,783.802,0
1993.53,783.007,0
1998.38,782.299,0
2003.23,781.683,0
2008.08,781.161,0
2012.93,780.739,0
2017.78,780.419,0
2022.63,780.205,1
2027.48,786.397,0
2032.33,792.798,0
2037.18,799.37,0
2042.03,806.077,0
2046.88,812.882,0
2051.73,819.748,0
2056.58,826.638,0
2061.43,833.514,0
2066.28,840.341,0
2071.13,847.08,0
2075.98,853.695,0
2080.83,860.149,0
2085.68,866.405,0
2090.53,872.425,0
2095.38,878.174,0
2100.23,883.614,0
2105.08,888.707,0
2109.94,893.417,0
2114.79,897.708,0
2119.64,901.541,0
2124.49,904.88,0
2129.34,907.688,0
2134.19,909.928,0
2139.04,911.563,0
2143.89,912.556,0
2148.74,912.87,0
2153.59,912.468,0
2158.44,911.313,0
2163.29,909.368,0
2168.14,906.596,0
2172.99,902.961,0
2177.84,898.424,0
2182.69,892.949,0
2187.54,886.499,0
2192.39,879.037,0
2197.24,870.526,0
2202.09,860.93,0
2206.94,850.21,0
2211.79,838.33,0
2216.64,825.254,0
2221.5,810.944,0
2226.35,795.362,0
2231.2,778.473,0
2236.05,760.239,0
2240.9,740.624,0
2245.75,719.589,0
2250.6,697.098,0
2255.45,673.115,0
2260.3,647.601,0
2265.15,620.521,0
2270,591.837,0
2274.85,561.513,0
2279.7,529.51,1
2284.55,531.763,0
2289.4,533.487,0
2294.25,534.722,0
2299.1,535.506,0
2303.95,535.881,0
2308.8,535.883,0
2313.65,535.554,0
2318.5,534.932,0
2323.35,534.057,0
2328.2,532.968,0
2333.05,531.704,0
2337.91,530.305,0
2342.76,528.81,0
2347.61,527.258,0
2352.46,525.689,0
2357.31,524.142,0
2362.16,522.657,0
2367.01,521.272,0
2371.86,520.028,0
2376.71,518.963,0
2381.56,518.117,0
2386.41,517.529,1
2391.26,516.455,0
2396.11,515.552,0
2400.96,514.81,0
2405.81,514.218,0
2410.66,513.768,0
2415.51,513.451,0
2420.36,513.256,0
2425.21,513.174,0
2430.06,513.197,0
2434.91,513.313,0
2439.76,513.515,0
2444.61,513.793,0
2449.47,514.136,0
2454.32,514.536,0
2459.17,514.984,0
2464.02,515.469,0
2468.87,515.983,0
2473.72,516.515,0
2478.57,517.057,1
