Dystans (m),Wysokosc (m),Wezel
0,520.283,1
4.85043,-671.816,0
9.70085,-1561.22,0
14.5513,-2198.39,0
19.4017,-2627.19,0
24.2521,-2885.58,0
29.1026,-3006.3,0
33.953,-3017.42,0
38.8034,-2942.94,0
43.6538,-2803.19,0
48.5043,-2615.34,0
53.3547,-2393.75,0
58.2051,-2150.32,0
63.0555,-1894.84,0
67.906,-1635.23,0
72.7564,-1377.85,0
77.6068,-1127.63,0
82.4572,-888.384,0
87.3077,-662.892,0
92.1581,-453.109,0
97.0085,-260.286,0
101.859,-85.0899,0
106.709,72.2859,0
111.56,212.034,0
116.41,334.651,0
121.261,440.87,0
126.111,531.599,1
130.961,607.873,0
135.812,670.811,0
140.662,721.581,0
145.513,761.368,0
150.363,791.351,0
155.214,812.684,0
160.064,826.48,0
164.914,833.799,0
169.765,835.638,0
174.615,832.926,0
179.466,826.519,0
184.316,817.198,0
189.167,805.669,0
194.017,792.563,0
198.867,778.437,0
203.718,763.779,0
208.568,749.007,0
213.419,734.479,0
218.269,720.491,0
223.12,707.285,0
227.97,695.052,0
232.82,683.937,0
237.671,674.044,0
242.521,665.441,0
247.372,658.161,0
252.222,652.213,1
257.073,647.576,0
261.923,644.214,0
266.773,642.069,0
271.624,641.074,0
276.474,641.146,0
281.325,642.199,0
286.175,644.139,0
291.026,646.867,0
295.876,650.285,0
300.726,654.294,0
305.577,658.798,0
310.427,663.702,0
315.278,668.918,0
320.128,674.359,0
324.979,679.947,0
329.829,685.608,0
334.679,691.276,0
339.53,696.89,0
344.38,702.398,0
349.231,707.753,0
354.081,712.915,0
358.932,717.851,0
363.782,722.535,0
368.632,726.946,0
373.483,731.069,0
378.333,734.894,1
383.184,738.417,0
388.034,741.637,0
392.884,744.559,0
397.735,747.19,0
402.585,749.54,0
407.436,751.623,0
412.286,753.454,0
417.137,755.051,0
421.987,756.433,0
426.837,757.62,0
431.688,758.632,0
436.538,759.491,0
441.389,760.218,0
446.239,760.833,0
451.09,761.359,0
455.94,761.814,0
460.79,762.218,0
465.641,762.588,0
470.491,762.943,0
475.342,763.297,0
480.192,763.664,0
485.043,764.059,0
489.893,764.491,0
494.743,764.972,0
499.594,765.51,0
504.444,766.111,1
509.295,766.781,0
514.145,767.525,0
518.996,768.344,0
523.846,769.242,0
528.696,770.217,0
533.547,771.27,0
538.397,772.399,0
543.248,773.6,0
548.098,774.87,0
552.949,776.206,0
557.799,777.601,0
562.649,779.052,0
567.5,780.551,0
572.35,782.094,0
577.201,783.672,0
582.051,785.281,0
586.902,786.913,0
591.752,788.562,0
596.602,790.221,0
601.453,791.885,0
606.303,793.547,0
611.154,795.201,0
616.004,796.843,0
620.855,798.467,0
625.705,800.068,0
630.555,801.643,1
635.406,803.188,0
640.256,804.7,0
645.107,806.175,0
649.957,807.612,0
654.807,809.01,0
659.658,810.366,0
664.508,811.68,0
669.359,812.952,0
674.209,814.183,0
679.06,815.371,0
683.91,816.519,0
688.76,817.628,0
693.611,818.699,0
698.461,819.734,0
703.312,820.735,0
708.162,821.705,0
713.013,822.646,0
717.863,823.56,0
722.713,824.45,0
727.564,825.319,0
732.414,826.169,0
737.265,827.004,0
742.115,827.825,0
746.966,828.636,0
751.816,829.439,0
756.666,830.235,1
761.517,831.027,0
766.367,831.818,0
771.218,832.608,0
776.068,833.398,0
780.919,834.191,0
785.769,834.988,0
790.619,835.787,0
795.47,836.591,0
800.32,837.399,0
805.171,838.211,0
810.021,839.026,0
814.872,839.844,0
819.722,840.664,0
824.572,841.484,0
829.423,842.304,0
834.273,843.12,0
839.124,843.932,0
843.974,844.738,0
848.825,845.534,0
853.675,846.32,0
858.525,847.091,0
863.376,847.847,0
868.226,848.583,0
873.077,849.298,0
877.927,849.988,0
882.778,850.652,1
887.628,851.285,0
892.478,851.887,0
897.329,852.453,0
902.179,852.983,0
907.03,853.473,0
911.88,853.921,0
916.73,854.326,0
921.581,854.685,0
926.431,854.998,0
931.282,855.263,0
936.132,855.478,0
940.983,855.643,0
945.833,855.758,0
950.683,855.822,0
955.534,855.835,0
960.384,855.797,0
965.235,855.71,0
970.085,855.573,0
974.936,855.387,0
979.786,855.155,0
984.636,854.878,0
989.487,854.558,0
994.337,854.196,0
999.188,853.796,0
1004.04,853.36,0
1008.89,852.891,1
1013.74,852.391,0
1018.59,851.864,0
1023.44,851.314,0
1028.29,850.744,0
1033.14,850.157,0
1037.99,849.557,0
1042.84,848.948,0
1047.69,848.333,0
1052.54,847.717,0
1057.39,847.104,0
1062.24,846.497,0
1067.09,845.899,0
1071.94,845.315,0
1076.79,844.748,0
1081.64,844.202,0
1086.5,843.68,0
1091.35,843.185,0
1096.2,842.719,0
1101.05,842.287,0
1105.9,841.89,0
1110.75,841.531,0
1115.6,841.212,0
1120.45,840.934,0
1125.3,840.699,0
1130.15,840.509,0
1135,840.365,1
1139.85,840.267,0
1144.7,840.215,0
1149.55,840.21,0
1154.4,840.251,0
1159.25,840.339,0
1164.1,840.471,0
1168.95,840.648,0
1173.8,840.868,0
1178.65,841.129,0
1183.5,841.429,0
1188.35,841.766,0
1193.2,842.137,0
1198.06,842.541,0
1202.91,842.974,0
1207.76,843.434,0
1212.61,843.916,0
1217.46,844.418,0
1222.31,844.937,0
1227.16,845.468,0
1232.01,846.008,0
1236.86,846.554,0
1241.71,847.102,0
1246.56,847.647,0
1251.41,848.186,0
1256.26,848.716,0
1261.11,849.233,1
1265.96,849.733,0
1270.81,850.213,0
1275.66,850.668,0
1280.51,851.097,0
1285.36,851.497,0
1290.21,851.863,0
1295.06,852.194,0
1299.91,852.486,0
1304.76,852.739,0
1309.61,852.95,0
1314.47,853.116,0
1319.32,853.238,0
1324.17,853.313,0
1329.02,853.34,0
1333.87,853.32,0
1338.72,853.251,0
1343.57,853.135,0
1348.42,852.97,0
1353.27,852.758,0
1358.12,852.5,0
1362.97,852.196,0
1367.82,851.849,0
1372.67,851.46,0
1377.52,851.03,0
1382.37,850.563,0
1387.22,850.061,1
1392.07,849.526,0
1396.92,848.961,0
1401.77,848.37,0
1406.62,847.756,0
1411.47,847.121,0
1416.32,846.47,0
1421.17,845.806,0
1426.03,845.134,0
1430.88,844.455,0
1435.73,843.775,0
1440.58,843.098,0
1445.43,842.426,0
1450.28,841.764,0
1455.13,841.115,0
1459.98,840.484,0
1464.83,839.872,0
1469.68,839.284,0
1474.53,838.723,0
1479.38,838.192,0
1484.23,837.693,0
1489.08,837.23,0
1493.93,836.803,0
1498.78,836.417,0
1503.63,836.072,0
1508.48,835.769,0
1513.33,835.511,1
1518.18,835.298,0
1523.03,835.13,0
1527.88,835.009,0
1532.73,834.933,0
1537.58,834.904,0
1542.44,834.92,0
1547.29,834.98,0
1552.14,835.083,0
1556.99,835.227,0
1561.84,835.412,0
1566.69,835.634,0
1571.54,835.891,0
1576.39,836.181,0
1581.24,836.501,0
1586.09,836.848,0
1590.94,837.218,0
1595.79,837.608,0
1600.64,838.015,0
1605.49,838.435,0
1610.34,838.864,0
1615.19,839.297,0
1620.04,839.732,0
1624.89,840.163,0
1629.74,840.588,0
1634.59,841.001,0
1639.44,841.399,1
1644.29,841.778,0
1649.14,842.134,0
1654,842.464,0
1658.85,842.763,0
1663.7,843.028,0
1668.55,843.256,0
1673.4,843.445,0
1678.25,843.59,0
1683.1,843.69,0
1687.95,843.742,0
1692.8,843.744,0
1697.65,843.694,0
1702.5,843.592,0
1707.35,843.434,0
1712.2,843.221,0
1717.05,842.952,0
1721.9,842.627,0
1726.75,842.246,0
1731.6,841.808,0
1736.45,841.315,0
1741.3,840.767,0
1746.15,840.166,0
1751,839.513,0
1755.85,838.81,0
1760.7,838.058,0
1765.56,837.261,1
1770.41,836.419,0
1775.26,835.536,0
1780.11,834.615,0
1784.96,833.658,0
1789.81,832.669,0
1794.66,831.65,0
1799.51,830.604,0
1804.36,829.535,0
1809.21,828.447,0
1814.06,827.342,0
1818.91,826.223,0
1823.76,825.094,0
1828.61,823.957,0
1833.46,822.817,0
1838.31,821.675,0
1843.16,820.534,0
1848.01,819.398,0
1852.86,818.267,0
1857.71,817.146,0
1862.56,816.035,0
1867.41,814.936,0
1872.26,813.852,0
1877.11,812.782,0
1881.97,811.729,0
1886.82,810.693,0
1891.67,809.674,1
1896.52,808.673,0
1901.37,807.689,0
1906.22,806.722,0
1911.07,805.771,0
1915.92,804.834,0
1920.77,803.911,0
1925.62,802.999,0
1930.47,802.096,0
1935.32,801.199,0
1940.17,800.305,0
1945.02,799.41,0
1949.87,798.51,0
1954.72,797.6,0
1959.57,796.675,0
1964.42,795.729,0
1969.27,794.755,0
1974.12,793.746,0
1978.97,792.694,0
1983.82,791.59,0
1988.67,790.424,0
1993.53,789.185,0
1998.38,787.861,0
2003.23,786.44,0
2008.08,784.906,0
2012.93,783.244,0
2017.78,781.438,1
2022.63,779.469,0
2027.48,777.316,0
2032.33,774.959,0
2037.18,772.373,0
2042.03,769.534,0
2046.88,766.415,0
2051.73,762.988,0
2056.58,759.221,0
2061.43,755.084,0
2066.28,750.542,0
2071.13,745.56,0
2075.98,740.101,0
2080.83,734.128,0
2085.68,727.602,0
2090.53,720.483,0
2095.38,712.732,0
2100.23,704.31,0
2105.08,695.179,0
2109.94,685.302,0
2114.79,674.646,0
2119.64,663.179,0
2124.49,650.875,0
2129.34,637.714,0
2134.19,623.682,0
2139.04,608.774,0
2143.89,592.997,1
2148.74,576.366,0
2153.59,558.914,0
2158.44,540.69,0
2163.29,521.76,0
2168.14,502.214,0
2172.99,482.166,0
2177.84,461.757,0
2182.69,441.161,0
2187.54,420.585,0
2192.39,400.276,0
2197.24,380.524,0
2202.09,361.663,0
2206.94,344.081,0
2211.79,328.222,0
2216.64,314.587,0
2221.5,303.745,0
2226.35,296.333,0
2231.2,293.061,0
2236.05,294.721,0
2240.9,302.185,0
2245.75,316.411,0
2250.6,338.448,0
2255.45,369.44,0
2260.3,410.624,0
2265.15,463.334,0
2270,529.002,1
2274.85,609.155,0
2279.7,705.413,0
2284.55,819.487,0
2289.4,953.169,0
2294.25,1108.33,0
2299.1,1286.88,0
2303.95,1490.82,0
2308.8,1722.14,0
2313.65,1982.85,0
2318.5,2274.94,0
2323.35,2600.34,0
2328.2,2960.88,0
2333.05,3358.25,0
2337.91,3793.96,0
2342.76,4269.24,0
2347.61,4784.99,0
2352.46,5341.71,0
2357.31,5939.37,0
2362.16,6577.33,0
2367.01,7254.21,0
2371.86,7967.74,0
2376.71,8714.6,0
2381.56,9490.26,0
2386.41,10288.8,0
2391.26,11102.5,0
2396.11,11922,0
2400.96,12735.5,0
2405.81,13528.9,0
2410.66,14285.3,0
2415.51,14984.3,0
2420.36,15602.1,0
2425.21,16110.8,0
2430.06,16477.7,0
2434.91,16665,0
2439.76,16629,0
2444.61,16319.5,0
2449.47,15679,0
2454.32,14641.9,0
2459.17,13133.5,0
2464.02,11069,0
2468.87,8352.58,0
2473.72,4875.9,0
2478.57,517.057,1
